0.00955889 2373.08 169.589
0.0104828 2309.28 106.849
0.0114067 2320.39 63.7166
0.0123306 2296.11 46.2532
0.0132546 2306.07 41.6292
0.0141785 2295.99 31.3433
0.0151024 2243.45 33.0386
0.0160263 2278.66 32.4345
0.0169502 2343.14 23.2219
0.0178741 2309.33 22.4197
0.0187981 2265.67 22.4771
0.019722 2283.93 21.7498
0.0206459 2265.86 16.0881
0.0215698 2242.51 16.8952
0.0224937 2277.04 17.2762
0.0234176 2224.27 17.1533
0.0243416 2221.56 14.2311
0.0252655 2209.91 14.2578
0.0261894 2212.09 15.3526
0.0271133 2234.65 13.4371
0.0280372 2175.92 15.3263
0.0289611 2183.23 15.4164
0.0298851 2189.27 15.8578
0.030809 2117.46 15.6298
0.0317329 2102.67 13.8943
0.0326568 2134.68 12.6313
0.0335807 2127.57 14.273
0.0345046 2123.9 12.5973
0.0354286 2120.88 14.1419
0.0363525 2082.18 12.5532
0.0372764 2061.72 11.7765
0.0382003 2055.23 12.4833
0.0391242 2060.24 11.9974
0.0400481 2043.9 12.4979
0.0409721 2012.95 11.7357
0.041896 2009.9 12.309
0.0428199 1998.12 11.885
0.0437438 1993.37 11.2959
0.0446677 1973.89 11.6595
0.0455916 1958.28 12.0315
0.0465156 1930.62 11.5935
0.0474395 1928.54 10.5516
0.0483634 1911.4 10.4616
0.0492873 1911.84 10.7326
0.0502112 1880.62 10.087
0.0511351 1842.04 9.6979
0.0520591 1842.17 10.4046
0.052983 1838.26 9.51858
0.0539069 1817.22 9.4229
0.0548308 1800.48 9.63121
0.0557547 1774.42 9.91707
0.0566786 1758.83 9.57204
0.0576026 1741.21 9.626
0.0585265 1726.01 9.89464
0.0594504 1707.68 9.28834
0.0603743 1700.65 9.61761
0.0612982 1660.92 9.46922
0.0622221 1636.65 9.03311
0.0631461 1629.9 8.89447
0.06407 1614.64 8.54447
0.0649939 1629.74 9.25058
0.0659178 1596.73 8.83322
0.0668417 1572.6 8.90609
0.0677656 1561.36 8.04154
0.0686896 1524.22 8.1862
0.0696135 1513.1 8.1924
0.0705374 1491.72 8.3362
0.0714613 1476.41 8.43122
0.0723852 1462.74 8.13608
0.0733092 1453.8 8.75676
0.0742331 1440.37 7.91705
0.075157 1435.85 7.75795
0.0760809 1396.36 7.82768
0.0770048 1366.08 7.86562
0.0779287 1351.91 7.21638
0.0788527 1338.9 7.13714
0.0797766 1335.4 7.76507
0.0807005 1326.35 7.13961
0.0816244 1298 6.61739
0.0825483 1282.01 6.8673
0.0834722 1247.66 6.93185
0.0843962 1226.65 6.9109
0.0853201 1212.64 6.79221
0.086244 1193.58 6.75256
0.0871679 1166.03 6.47194
0.0880918 1162.62 7.06738
0.0890157 1145.46 6.68796
0.0899397 1136.79 6.63812
0.0908636 1125.8 6.82376
0.0917875 1112.18 6.40334
0.0927114 1089.87 6.46971
0.0936353 1059.96 6.16658
0.0945592 1032.83 5.58629
0.0954832 1027.66 6.02932
0.0964071 1016.89 5.91718
0.097331 1003.41 5.73574
0.0982549 983.445 6.12318
0.0991788 960.114 5.92149
0.100103 944.929 5.75982
0.101027 927.118 5.6275
0.101951 907.265 6.0022
0.102874 894.397 5.80499
0.103798 897.099 5.63889
0.104722 885.856 5.76722
0.105646 859.766 5.8883
0.10657 836.961 5.16542
0.107494 818.664 5.33707
0.108418 803.987 5.3492
0.109342 788.55 5.22851
0.110266 773.629 5.08531
0.11119 750.47 5.15718
0.112114 742.003 5.16578
0.113038 726.189 4.65354
0.113961 716.314 5.02696
0.114885 699.506 5.13276
0.115809 684.359 5.23567
0.116733 673.575 4.66632
0.117657 667.096 4.63856
0.118581 648.998 5.11412
0.119505 625.07 4.70074
0.120429 617.132 4.57698
0.121353 608.786 4.83151
0.122277 596.569 4.50495
0.123201 577.723 4.56175
0.124125 567.006 4.53535
0.125048 552.62 4.37551
0.125972 543.232 4.37985
0.126896 529.782 4.4878
0.12782 521.412 4.58321
0.128744 511.492 4.35763
0.129668 497.456 4.23117
0.130592 484.71 4.31767
0.131516 468.53 4.16207
0.13244 454.786 4.29956
0.133364 444.474 4.30158
0.134288 436.282 4.30776
0.135212 424.327 4.17349
0.136136 414.897 4.23945
0.137059 405.485 4.36253
0.137983 395.624 4.31402
0.138907 384.841 3.83211
0.139831 376.69 3.77728
0.140755 358.534 4.45776
0.141679 360.741 4.18357
0.142603 359.895 3.98481
0.143527 344.088 4.01453
0.144451 331.9 5.39627
0.145375 317.908 4.23603
0.146299 313.611 3.70772
0.147223 309.533 3.85678
0.148146 301.28 3.72788
0.14907 285.804 3.77303
0.149994 279.192 3.73501
0.150918 278.442 3.78626
0.151842 266.773 3.93734
0.152766 266.071 3.68441
0.15369 255.374 3.80121
0.154614 249.346 3.75064
0.155538 240.085 3.81277
0.156462 237.808 3.71656
0.157386 231.561 3.67061
0.15831 222.244 3.55088
0.159233 218.896 3.52112
0.160157 211.708 3.57984
0.161081 205.58 3.5508
0.162005 197.863 3.6746
0.162929 192.639 3.42871
0.163853 183.57 3.26649
0.164777 179.236 3.33058
0.165701 175.466 3.23813
0.166625 168.995 3.48553
0.167549 167.823 3.4257
0.168473 163.134 3.33126
0.169397 155.011 3.51836
0.17032 151.099 3.2372
0.171244 145.403 3.29355
0.172168 142.507 3.4213
0.173092 143.491 3.32782
0.174016 135.756 3.30935
0.17494 132.612 3.3066
0.175864 129.26 3.17664
0.176788 126.303 3.26907
0.177712 122.825 3.24942
0.178636 121.896 3.29816
0.17956 106.649 3.11058
0.180484 112.211 3.1392
0.181407 108.352 2.96385
0.182331 103.235 3.15212
0.183255 101.982 3.23363
0.184179 98.0051 2.99212
0.185103 96.807 3.06905
0.186027 103.544 3.02388
0.186951 86.7264 3.05995
0.187875 88.4781 2.97594
0.188799 91.2471 2.87655
0.189723 84.6947 3.04807
0.190647 80.7206 2.85541
0.191571 77.3555 3.02111
0.192494 81.9888 3.01096
0.193418 81.2176 3.02313
0.194342 79.307 3.12189
0.195266 77.0148 2.93109
0.19619 71.1157 2.98891
0.197114 70.6164 2.95671
0.198038 68.4537 2.86763
0.198962 64.1802 3.01134
0.199886 63.6702 2.89319
0.20081 55.2041 2.9025
0.201734 58.6673 2.9807
0.202658 59.1561 2.93705
0.203581 58.4604 2.80555
0.204505 62.4991 2.79817
0.205429 59.8008 2.80916
0.206353 52.8878 2.84406
0.207277 49.704 2.8963
0.208201 52.6827 2.91648
0.209125 51.1561 2.88331
0.210049 50.0435 2.94442
0.210973 55.2954 2.82567
0.211897 54.4612 2.86016
0.212821 50.6073 2.76811
0.213745 44.0333 2.872
0.214668 51.6086 2.72607
0.215592 56.6835 2.86648
0.216516 47.0325 2.81474
0.21744 48.1698 2.87852
0.218364 44.0571 2.84727
0.219288 48.2886 2.76238
0.220212 53.0676 2.77658
0.221136 51.9191 2.89221
0.22206 49.1796 2.87353
0.222984 44.9191 2.74515
0.223908 49.559 2.7765
0.224832 47.4531 2.77971
0.225755 44.2949 2.85853
0.226679 44.2173 2.72722
0.227603 49.2289 2.91063
0.228527 49.1016 2.94045
0.229451 45.9162 2.79213
0.230375 48.3733 2.8325
0.231299 46.7214 2.79459
0.232223 35.6548 2.83098
0.233147 42.621 2.85685
0.234071 41.941 2.90157
0.234995 43.5023 2.83177
0.235919 51.8986 2.94546
0.236842 41.9832 2.82461
0.237766 39.8618 2.86875
0.23869 48.7179 2.84956
0.239614 48.3217 2.89004
0.240538 40.174 2.84441
0.241462 34.9982 2.76433
0.242386 42.5103 2.82066
0.24331 47.9891 2.78888
0.244234 46.248 2.92497
0.245158 43.5631 2.89337
0.246082 44.1604 2.78231
0.247006 42.4099 2.80178
0.247929 49.6961 2.87631
0.248853 46.4026 2.73806
0.249777 46.7653 2.81516
0.250701 48.4276 2.82883
0.251625 46.8502 2.79908
0.252549 43.2787 2.83134
0.253473 46.4005 2.75444
0.254397 53.8228 2.85761
0.255321 47.0116 2.77965
0.256245 43.3378 2.85034
0.257169 40.6179 2.68492
0.258093 45.7509 2.77421
0.259016 49.4578 2.81792
0.25994 48.7842 2.75239
0.260864 45.0437 2.65032
0.261788 43.1151 2.66701
0.262712 47.6462 2.70515
0.263636 50.0764 2.68532
0.26456 47.6534 2.79393
0.265484 42.9904 2.79187
0.266408 43.6526 2.91231
0.267332 48.3112 2.77521
0.268256 47.1192 2.86057
0.26918 40.7062 2.78001
0.270103 42.2105 2.82772
0.271027 51.4691 2.7366
0.271951 51.8915 2.75416
0.272875 52.7577 2.7472
0.273799 47.7572 2.6681
0.274723 48.801 2.70235
0.275647 48.111 2.63991
0.276571 49.1954 2.75467
0.277495 47.0022 2.67073
0.278419 44.1004 2.77496
0.279343 48.126 2.81039
0.280267 50.7514 2.77887
0.28119 46.5773 2.81954
0.282114 48.6978 3.05867
0.283038 47.2407 2.81272
0.283962 45.7485 2.94149
0.284886 47.94 2.97553
0.28581 44.3641 2.81646
0.286734 46.7079 2.96616
0.287658 45.154 2.81721
0.288582 46.6155 2.84533
0.289506 45.9239 2.8834
0.29043 51.2675 2.9678
0.291354 49.5341 2.86605
0.292277 52.6071 3.0476
0.293201 46.4081 3.05642
0.294125 45.8697 3.01008
0.295049 43.0916 3.01762
0.295973 48.8662 3.13297
0.296897 51.9669 3.17497
0.297821 45.2944 3.03549
0.298745 41.6812 3.19181
0.299669 44.9923 3.29917
0.300593 45.8087 3.1552
0.301517 45.4999 3.1969
0.302441 41.751 3.13421
0.303364 47.064 3.33209
0.304288 41.964 3.2959
0.305212 44.6621 3.28737
0.306136 45.5615 3.20339
0.30706 45.454 3.26605
0.307984 45.7476 3.21397
0.308908 48.0693 3.28747
0.309832 47.9355 3.19288
0.310756 38.3763 3.32907
0.31168 43.783 3.2978
0.312604 41.8346 3.26359
0.313528 42.3011 3.41216
0.314451 49.3983 3.49034
0.315375 42.6691 3.48261
0.316299 40.4949 3.52553
0.317223 34.7228 3.35254
0.318147 49.6428 3.51613
0.319071 40.2444 3.61772
0.319995 39.1156 3.37733
0.320919 40.16 3.44975
0.321843 46.0602 3.44811
0.322767 41.695 3.47693
0.323691 38.8036 3.51535
0.324615 35.8439 3.51217
0.325538 33.3264 3.34724
0.326462 26.8474 3.38853
0.327386 35.0364 3.70065
0.32831 43.45 4.33952
0.329234 36.3704 3.70614
0.330158 43.2631 3.78912
0.331082 44.5612 3.79737
0.332006 44.5447 3.93394
0.33293 42.9063 3.83404
0.333854 36.5676 3.6585
0.334778 36.8481 3.74496
0.335702 40.5209 3.72027
0.336625 36.9263 3.78717
0.337549 43.0052 4.06849
0.338473 37.0394 3.85521
0.339397 26.8132 3.79766
0.340321 34.7046 3.86448
0.341245 47.2228 3.91727
0.342169 39.1713 3.77526
0.343093 40.2256 3.96445
0.344017 42.9392 4.00497
0.344941 42.2099 3.85458
0.345865 35.1337 3.99206
0.346789 34.2111 3.93714
0.347712 29.46 4.23504
0.348636 33.6647 4.1967
0.34956 41.9813 3.99989
0.350484 41.4904 4.05163
0.351408 44.594 3.92874
0.352332 37.5924 3.9449
0.353256 36.5486 3.92957
0.35418 33.5609 4.07177
0.355104 35.5506 3.90456
0.356028 30.4171 3.9989
0.356952 35.5659 4.00334
0.357876 31.6015 3.95037
0.358799 41.9028 4.02571
0.359723 38.7437 3.88083
0.360647 39.2171 3.90951
0.361571 40.607 4.13175
0.362495 33.0341 4.09679
0.363419 34.4642 4.23673
0.364343 33.9539 3.96833
0.365267 39.416 4.17215
0.366191 46.9434 3.96052
0.367115 53.0729 4.08482
0.368039 40.8793 4.09986
0.368963 43.7206 4.34276
0.369886 45.6955 4.36352
0.37081 34.1672 4.08194
0.371734 31.1729 3.96461
0.372658 39.5508 4.07438
0.373582 45.8083 4.09651
0.374506 37.7092 4.13642
0.37543 38.8452 4.48592
0.376354 46.5554 4.31737
0.377278 41.3877 4.45951
0.378202 38.666 4.22323
0.379126 45.2875 4.18332
0.38005 45.7776 4.10987
0.380973 38.14 4.38392
0.381897 29.4431 4.06108
0.382821 36.4452 4.16687
0.383745 43.1193 4.0554
0.384669 44.4659 4.15035
0.385593 48.1741 4.35394
0.386517 46.8107 4.28099
0.387441 40.0712 4.12314
0.388365 46.4947 4.17927
0.389289 41.1536 4.21598
0.390213 33.2034 4.26921
0.391137 31.0424 4.46129
0.39206 43.0922 4.2004
0.392984 39.8807 4.0349
0.393908 45.541 4.10857
0.394832 43.5991 4.08862
0.395756 40.4347 4.15623
0.39668 41.9174 4.17052
0.397604 42.8792 4.27235
0.398528 52.9858 4.86669
0.399452 37.2574 4.25318
0.400376 38.2968 4.22731
0.4013 35.3041 4.38257
0.402224 39.5339 4.37984
0.403147 41.7422 4.24664
0.404071 49.4361 4.4238
0.404995 48.419 4.32207
0.405919 43.872 4.12029
0.406843 40.3746 4.40513
0.407767 48.2131 4.38004
0.408691 45.6794 4.17877
0.409615 41.5718 4.14723
0.410539 42.3787 4.35814
0.411463 42.3731 4.303
0.412387 39.0239 4.30269
0.413311 42.1563 4.35723
0.414234 47.0734 4.09164
0.415158 50.3137 4.21172
0.416082 50.2905 4.31922
0.417006 53.6969 4.4573
0.41793 43.9052 4.31603
0.418854 36.3694 4.26236
0.419778 31.6615 4.24538
0.420702 42.7448 4.40292
0.421626 40.1199 3.98396
0.42255 38.6738 4.02542
0.423474 34.959 3.98509
0.424398 40.7134 4.30495
0.425321 31.6335 4.36656
0.426245 39.0588 4.33547
0.427169 40.4973 4.20192
0.428093 31.3772 4.35193
0.429017 43.0599 4.40618
0.429941 46.5809 4.20692
0.430865 43.0313 4.27005
0.431789 44.5233 4.14756
0.432713 43.9526 4.40844
0.433637 43.1342 4.41883
0.434561 45.2318 4.01395
0.435485 40.1475 4.26288
0.436408 43.3566 4.21148
0.437332 43.053 4.33024
0.438256 42.2585 4.48565
0.43918 43.4587 4.43752
0.440104 43.5967 4.292
0.441028 40.5243 4.30156
0.441952 42.6984 4.55803
0.442876 43.7335 4.2053
0.4438 48.4883 4.30971
0.444724 50.8196 4.26152
0.445648 51.5933 4.5001
0.446572 40.5891 4.59254
0.447495 36.376 4.33274
0.448419 33.3489 4.37298
0.449343 38.1392 4.30122
0.450267 39.982 4.26843
0.451191 55.9794 4.31347
0.452115 52.8075 4.54233
0.453039 40.1277 4.37305
0.453963 50.8409 4.38164
0.454887 44.3909 4.30544
0.455811 41.1236 4.3582
0.456735 38.8571 4.35174
0.457659 41.6784 4.38454
0.458582 46.1174 4.25583
0.459506 40.9722 4.35964
0.46043 30.1614 4.44625
0.461354 39.5452 4.29303
0.462278 47.6798 4.45126
0.463202 40.2785 4.28021
0.464126 35.7889 4.30517
0.46505 35.6508 4.35367
0.465974 40.9383 4.55534
0.466898 48.7344 4.51494
0.467822 42.2936 4.2515
0.468746 30.6504 4.41056
0.469669 37.6276 4.38636
0.470593 43.8741 4.49741
0.471517 47.2747 4.27362
0.472441 43.591 4.30316
0.473365 43.9903 4.19126
0.474289 40.1727 4.13327
0.475213 42.1402 4.47731
0.476137 45.0643 4.87107
0.477061 52.7395 4.80918
0.477985 48.2732 4.75956
0.478909 53.7116 4.98352
0.479833 42.5401 5.03187
0.480756 37.8434 4.78048
0.48168 38.2987 4.96175
0.482604 38.6641 5.00232
0.483528 42.201 4.83614
0.484452 38.8743 5.32647
0.485376 42.5666 5.69991
0.4863 33.7462 5.22999
0.487224 40.6996 6.0474
0.488148 44.6047 5.62372
0.489072 43.1185 5.4585
0.489996 48.3702 5.78532
0.49092 53.6937 6.03858
0.491843 46.8736 5.69314
0.492767 23.7352 5.87929
0.493691 44.4977 6.10362
0.494615 51.4867 6.14614
0.495539 43.8168 6.39437
0.496463 43.6042 6.53145
0.497387 27.4895 6.87434
0.498311 35.0727 7.02023
0.499235 57.3587 6.76631
0.500159 46.1345 6.96263
0.501083 34.6896 6.88808
0.502007 44.6641 7.46533
0.502931 43.2501 7.81614
0.503854 36.5508 8.33972
0.504778 40.2581 7.76793
0.505702 26.82 7.80648
0.506626 36.8292 8.49872
0.50755 23.4044 8.60312
0.508474 20.2436 9.16247
0.509398 44.7708 8.96067
0.510322 43.4884 8.64885
0.511246 57.7691 9.31385
0.51217 38.4113 8.85468
0.513094 35.2694 10.6835
0.514018 30.1791 9.59067
0.514941 44.9877 9.85308
0.515865 53.8562 11.7686
0.516789 40.0298 11.6064
0.517713 22.6845 12.8306
0.518637 25.6855 11.0338
0.519561 32.2289 12.2797
0.520485 47.8453 11.9005
0.521409 55.9493 13.6565
0.522333 38.3275 12.28
0.523257 50.0209 17.6278
0.524181 15.6102 18.5549
0.525105 73.5137 20.639
0.526028 39.9133 18.9901
0.526952 66.8486 29.679
0.527876 76.7976 27.1116
0.5288 31.265 34.9926
0.529724 -21.3583 65.2888
